ME_CYL_STORE_1
REMOTE Height (cm);Height (m);VTr=-6;VTr=-4;VTr=-3;VTr=-2;VTr=-1;VTr=0;VTr=1;VTr=2;HC.P2;HC.P1;HC.S-1;HC.S-2
Cm;M;m3;m3;m3;m3;m3;m3;m3;m3;m3;m3;m3;m3
0;;0.0;0.0;0.0;0.0;0.0;0.0;0.0;0.0;0.0;0.0;0.0;0.0
5;;0.25;0.25;0.25;0.25;0.25;0.25;0.25;0.25;0.0;0.0;0.0;0.0
10;;0.5;0.5;0.5;0.5;0.5;0.5;0.5;0.5;0.0;0.0;0.0;0.0
15;;0.75;0.75;0.75;0.75;0.75;0.75;0.75;0.75;0.0;0.0;0.0;0.0
20;;1.0;1.0;1.0;1.0;1.0;1.0;1.0;1.0;0.0;0.0;0.0;0.0
25;;1.25;1.25;1.25;1.25;1.25;1.25;1.25;1.25;0.0;0.0;0.0;0.0
30;;1.5;1.5;1.5;1.5;1.5;1.5;1.5;1.5;0.0;0.0;0.0;0.0
35;;1.75;1.75;1.75;1.75;1.75;1.75;1.75;1.75;0.0;0.0;0.0;0.0
40;;2.0;2.0;2.0;2.0;2.0;2.0;2.0;2.0;0.0;0.0;0.0;0.0
45;;2.25;2.25;2.25;2.25;2.25;2.25;2.25;2.25;0.0;0.0;0.0;0.0
50;;2.5;2.5;2.5;2.5;2.5;2.5;2.5;2.5;0.0;0.0;0.0;0.0
55;;2.75;2.75;2.75;2.75;2.75;2.75;2.75;2.75;0.0;0.0;0.0;0.0
60;;3.0;3.0;3.0;3.0;3.0;3.0;3.0;3.0;0.0;0.0;0.0;0.0
65;;3.25;3.25;3.25;3.25;3.25;3.25;3.25;3.25;0.0;0.0;0.0;0.0
70;;3.5;3.5;3.5;3.5;3.5;3.5;3.5;3.5;0.0;0.0;0.0;0.0
75;;3.75;3.75;3.75;3.75;3.75;3.75;3.75;3.75;0.0;0.0;0.0;0.0
80;;4.0;4.0;4.0;4.0;4.0;4.0;4.0;4.0;0.0;0.0;0.0;0.0
85;;4.3;4.3;4.3;4.3;4.3;4.3;4.3;4.3;0.0;0.0;0.0;0.0
90;;4.6;4.6;4.6;4.6;4.6;4.6;4.6;4.6;0.0;0.0;0.0;0.0
95;;4.85;4.85;4.85;4.85;4.85;4.85;4.85;4.85;0.0;0.0;0.0;0.0
100;;5.1;5.1;5.1;5.1;5.1;5.1;5.1;5.1;0.0;0.0;0.0;0.0
105;;5.4;5.4;5.4;5.4;5.4;5.4;5.4;5.4;0.0;0.0;0.0;0.0
110;;5.7;5.7;5.7;5.7;5.7;5.7;5.7;5.7;0.0;0.0;0.0;0.0
115;;5.95;5.95;5.95;5.95;5.95;5.95;5.95;5.95;0.0;0.0;0.0;0.0
120;;6.2;6.2;6.2;6.2;6.2;6.2;6.2;6.2;0.0;0.0;0.0;0.0
125;;6.5;6.5;6.5;6.5;6.5;6.5;6.5;6.5;0.0;0.0;0.0;0.0
130;;6.8;6.8;6.8;6.8;6.8;6.8;6.8;6.8;0.0;0.0;0.0;0.0
135;;7.1;7.1;7.1;7.1;7.1;7.1;7.1;7.1;0.0;0.0;0.0;0.0
140;;7.4;7.4;7.4;7.4;7.4;7.4;7.4;7.4;0.0;0.0;0.0;0.0
145;;7.7;7.7;7.7;7.7;7.7;7.7;7.7;7.7;0.0;0.0;0.0;0.0
150;;8.0;8.0;8.0;8.0;8.0;8.0;8.0;8.0;0.0;0.0;0.0;0.0
155;;8.25;8.25;8.25;8.25;8.25;8.25;8.25;8.25;0.0;0.0;0.0;0.0
160;;8.5;8.5;8.5;8.5;8.5;8.5;8.5;8.5;0.0;0.0;0.0;0.0
165;;8.8;8.8;8.8;8.8;8.8;8.8;8.8;8.8;0.0;0.0;0.0;0.0
170;;9.1;9.1;9.1;9.1;9.1;9.1;9.1;9.1;0.0;0.0;0.0;0.0
175;;9.4;9.4;9.4;9.4;9.4;9.4;9.4;9.4;0.0;0.0;0.0;0.0
180;;9.7;9.7;9.7;9.7;9.7;9.7;9.7;9.7;0.0;0.0;0.0;0.0
185;;10.05;10.05;10.05;10.05;10.05;10.05;10.05;10.05;0.0;0.0;0.0;0.0
190;;10.4;10.4;10.4;10.4;10.4;10.4;10.4;10.4;0.0;0.0;0.0;0.0
195;;10.7;10.7;10.7;10.7;10.7;10.7;10.7;10.7;0.0;0.0;0.0;0.0
200;;11.0;11.0;11.0;11.0;11.0;11.0;11.0;11.0;0.0;0.0;0.0;0.0
205;;11.3;11.3;11.3;11.3;11.3;11.3;11.3;11.3;0.0;0.0;0.0;0.0
210;;11.6;11.6;11.6;11.6;11.6;11.6;11.6;11.6;0.0;0.0;0.0;0.0
215;;11.9;11.9;11.9;11.9;11.9;11.9;11.9;11.9;0.0;0.0;0.0;0.0
220;;12.2;12.2;12.2;12.2;12.2;12.2;12.2;12.2;0.0;0.0;0.0;0.0
225;;12.5;12.5;12.5;12.5;12.5;12.5;12.5;12.5;0.0;0.0;0.0;0.0
230;;12.8;12.8;12.8;12.8;12.8;12.8;12.8;12.8;0.0;0.0;0.0;0.0
235;;13.1;13.1;13.1;13.1;13.1;13.1;13.1;13.1;0.0;0.0;0.0;0.0
240;;13.4;13.4;13.4;13.4;13.4;13.4;13.4;13.4;0.0;0.0;0.0;0.0
245;;13.7;13.7;13.7;13.7;13.7;13.7;13.7;13.7;0.0;0.0;0.0;0.0
250;;14.0;14.0;14.0;14.0;14.0;14.0;14.0;14.0;0.0;0.0;0.0;0.0
255;;14.3;14.3;14.3;14.3;14.3;14.3;14.3;14.3;0.0;0.0;0.0;0.0
260;;14.6;14.6;14.6;14.6;14.6;14.6;14.6;14.6;0.0;0.0;0.0;0.0
265;;14.9;14.9;14.9;14.9;14.9;14.9;14.9;14.9;0.0;0.0;0.0;0.0
270;;15.2;15.2;15.2;15.2;15.2;15.2;15.2;15.2;0.0;0.0;0.0;0.0
275;;15.5;15.5;15.5;15.5;15.5;15.5;15.5;15.5;0.0;0.0;0.0;0.0
280;;15.8;15.8;15.8;15.8;15.8;15.8;15.8;15.8;0.0;0.0;0.0;0.0
285;;16.1;16.1;16.1;16.1;16.1;16.1;16.1;16.1;0.0;0.0;0.0;0.0
290;;16.4;16.4;16.4;16.4;16.4;16.4;16.4;16.4;0.0;0.0;0.0;0.0
295;;16.7;16.7;16.7;16.7;16.7;16.7;16.7;16.7;0.0;0.0;0.0;0.0
300;;17.0;17.0;17.0;17.0;17.0;17.0;17.0;17.0;0.0;0.0;0.0;0.0
305;;17.35;17.35;17.35;17.35;17.35;17.35;17.35;17.35;0.0;0.0;0.0;0.0
310;;17.7;17.7;17.7;17.7;17.7;17.7;17.7;17.7;0.0;0.0;0.0;0.0
315;;18.0;18.0;18.0;18.0;18.0;18.0;18.0;18.0;0.0;0.0;0.0;0.0
320;;18.3;18.3;18.3;18.3;18.3;18.3;18.3;18.3;0.0;0.0;0.0;0.0