GE_LO_ST_2
REMOTE Height (cm);Height (m);VTr=-6;VTr=-4;VTr=-3;VTr=-2;VTr=-1;VTr=0;VTr=1;VTr=2;HC.P2;HC.P1;HC.S-1;HC.S-2
Cm;M;m3;m3;m3;m3;m3;m3;m3;m3;m3;m3;m3;m3
0;;0.0;0.0;0.0;0.0;0.0;0.0;0.0;0.0;0.0;0.0;0.0;0.0
5;;0.0;0.0;0.0;0.0;0.0;0.0;0.0;0.0;0.0;0.0;0.0;0.0
10;;0.1;0.1;0.1;0.1;0.1;0.1;0.1;0.1;0.0;0.0;0.0;0.0
15;;0.2;0.2;0.2;0.2;0.2;0.2;0.2;0.2;0.0;0.0;0.0;0.0
20;;0.3;0.3;0.3;0.3;0.3;0.3;0.3;0.3;0.0;0.0;0.0;0.0
25;;0.4;0.4;0.4;0.4;0.4;0.4;0.4;0.4;0.0;0.0;0.0;0.0
30;;0.5;0.5;0.5;0.5;0.5;0.5;0.5;0.5;0.0;0.0;0.0;0.0
35;;0.55;0.55;0.55;0.55;0.55;0.55;0.55;0.55;0.0;0.0;0.0;0.0
40;;0.6;0.6;0.6;0.6;0.6;0.6;0.6;0.6;0.0;0.0;0.0;0.0
45;;0.7;0.7;0.7;0.7;0.7;0.7;0.7;0.7;0.0;0.0;0.0;0.0
50;;0.8;0.8;0.8;0.8;0.8;0.8;0.8;0.8;0.0;0.0;0.0;0.0
55;;0.9;0.9;0.9;0.9;0.9;0.9;0.9;0.9;0.0;0.0;0.0;0.0
60;;1.0;1.0;1.0;1.0;1.0;1.0;1.0;1.0;0.0;0.0;0.0;0.0
65;;1.1;1.1;1.1;1.1;1.1;1.1;1.1;1.1;0.0;0.0;0.0;0.0
70;;1.2;1.2;1.2;1.2;1.2;1.2;1.2;1.2;0.0;0.0;0.0;0.0
75;;1.3;1.3;1.3;1.3;1.3;1.3;1.3;1.3;0.0;0.0;0.0;0.0
80;;1.4;1.4;1.4;1.4;1.4;1.4;1.4;1.4;0.0;0.0;0.0;0.0
85;;1.5;1.5;1.5;1.5;1.5;1.5;1.5;1.5;0.0;0.0;0.0;0.0
90;;1.6;1.6;1.6;1.6;1.6;1.6;1.6;1.6;0.0;0.0;0.0;0.0
95;;1.7;1.7;1.7;1.7;1.7;1.7;1.7;1.7;0.0;0.0;0.0;0.0
100;;1.8;1.8;1.8;1.8;1.8;1.8;1.8;1.8;0.0;0.0;0.0;0.0
105;;1.9;1.9;1.9;1.9;1.9;1.9;1.9;1.9;0.0;0.0;0.0;0.0
110;;2.0;2.0;2.0;2.0;2.0;2.0;2.0;2.0;0.0;0.0;0.0;0.0
115;;2.1;2.1;2.1;2.1;2.1;2.1;2.1;2.1;0.0;0.0;0.0;0.0
120;;2.2;2.2;2.2;2.2;2.2;2.2;2.2;2.2;0.0;0.0;0.0;0.0
125;;2.35;2.35;2.35;2.35;2.35;2.35;2.35;2.35;0.0;0.0;0.0;0.0
130;;2.5;2.5;2.5;2.5;2.5;2.5;2.5;2.5;0.0;0.0;0.0;0.0
135;;2.6;2.6;2.6;2.6;2.6;2.6;2.6;2.6;0.0;0.0;0.0;0.0
140;;2.7;2.7;2.7;2.7;2.7;2.7;2.7;2.7;0.0;0.0;0.0;0.0
145;;2.85;2.85;2.85;2.85;2.85;2.85;2.85;2.85;0.0;0.0;0.0;0.0
150;;3.0;3.0;3.0;3.0;3.0;3.0;3.0;3.0;0.0;0.0;0.0;0.0
155;;3.1;3.1;3.1;3.1;3.1;3.1;3.1;3.1;0.0;0.0;0.0;0.0
160;;3.2;3.2;3.2;3.2;3.2;3.2;3.2;3.2;0.0;0.0;0.0;0.0
165;;3.35;3.35;3.35;3.35;3.35;3.35;3.35;3.35;0.0;0.0;0.0;0.0
170;;3.5;3.5;3.5;3.5;3.5;3.5;3.5;3.5;0.0;0.0;0.0;0.0
175;;3.6;3.6;3.6;3.6;3.6;3.6;3.6;3.6;0.0;0.0;0.0;0.0
180;;3.7;3.7;3.7;3.7;3.7;3.7;3.7;3.7;0.0;0.0;0.0;0.0
185;;3.85;3.85;3.85;3.85;3.85;3.85;3.85;3.85;0.0;0.0;0.0;0.0
190;;4.0;4.0;4.0;4.0;4.0;4.0;4.0;4.0;0.0;0.0;0.0;0.0
195;;4.15;4.15;4.15;4.15;4.15;4.15;4.15;4.15;0.0;0.0;0.0;0.0
200;;4.3;4.3;4.3;4.3;4.3;4.3;4.3;4.3;0.0;0.0;0.0;0.0
205;;4.45;4.45;4.45;4.45;4.45;4.45;4.45;4.45;0.0;0.0;0.0;0.0
210;;4.6;4.6;4.6;4.6;4.6;4.6;4.6;4.6;0.0;0.0;0.0;0.0
215;;4.75;4.75;4.75;4.75;4.75;4.75;4.75;4.75;0.0;0.0;0.0;0.0
220;;4.9;4.9;4.9;4.9;4.9;4.9;4.9;4.9;0.0;0.0;0.0;0.0
225;;5.05;5.05;5.05;5.05;5.05;5.05;5.05;5.05;0.0;0.0;0.0;0.0
230;;5.2;5.2;5.2;5.2;5.2;5.2;5.2;5.2;0.0;0.0;0.0;0.0
235;;5.35;5.35;5.35;5.35;5.35;5.35;5.35;5.35;0.0;0.0;0.0;0.0
240;;5.5;5.5;5.5;5.5;5.5;5.5;5.5;5.5;0.0;0.0;0.0;0.0
245;;5.65;5.65;5.65;5.65;5.65;5.65;5.65;5.65;0.0;0.0;0.0;0.0
250;;5.8;5.8;5.8;5.8;5.8;5.8;5.8;5.8;0.0;0.0;0.0;0.0
255;;6.0;6.0;6.0;6.0;6.0;6.0;6.0;6.0;0.0;0.0;0.0;0.0
260;;6.2;6.2;6.2;6.2;6.2;6.2;6.2;6.2;0.0;0.0;0.0;0.0
265;;6.35;6.35;6.35;6.35;6.35;6.35;6.35;6.35;0.0;0.0;0.0;0.0
270;;6.5;6.5;6.5;6.5;6.5;6.5;6.5;6.5;0.0;0.0;0.0;0.0
275;;6.65;6.65;6.65;6.65;6.65;6.65;6.65;6.65;0.0;0.0;0.0;0.0
280;;6.8;6.8;6.8;6.8;6.8;6.8;6.8;6.8;0.0;0.0;0.0;0.0
285;;7.0;7.0;7.0;7.0;7.0;7.0;7.0;7.0;0.0;0.0;0.0;0.0
290;;7.2;7.2;7.2;7.2;7.2;7.2;7.2;7.2;0.0;0.0;0.0;0.0
295;;7.35;7.35;7.35;7.35;7.35;7.35;7.35;7.35;0.0;0.0;0.0;0.0
300;;7.5;7.5;7.5;7.5;7.5;7.5;7.5;7.5;0.0;0.0;0.0;0.0
305;;7.7;7.7;7.7;7.7;7.7;7.7;7.7;7.7;0.0;0.0;0.0;0.0
310;;7.9;7.9;7.9;7.9;7.9;7.9;7.9;7.9;0.0;0.0;0.0;0.0
315;;8.05;8.05;8.05;8.05;8.05;8.05;8.05;8.05;0.0;0.0;0.0;0.0
320;;8.2;8.2;8.2;8.2;8.2;8.2;8.2;8.2;0.0;0.0;0.0;0.0